T+ [us] MPU 6050: X Rad/s Y Rad/s Z Rad/s X m/s^2 Y m/s^2 Z m/s^2 IMU Temp [c] BMP280 Pressure [Pa] BMP280 Temperature [c] ICM 20948: X Rad/s Y Rad/s Z Rad/s X m/s^2 Y m/s^2 Z m/s^2
25402379 -0.0250474736 0.0005329250 0.0287779476 0.9026140571 -0.2801215947 -9.9957923889 23.6682 99353.7344 23.7800 -0.0889984667 0.0197182242 -0.0026646247 0.2418143749 -0.7254431248 -9.6510267258
25414965 -0.0349065848 -0.0002664625 0.0314425714 0.8738836050 -0.2681505978 -10.0197343826 23.6476 99353.5781 23.7800 -0.0980581865 0.0202511493 -0.0015987749 0.2274491638 -0.7565677166 -9.8641109467
25425188 -0.0415681452 -0.0005329250 0.0333078094 0.8667010069 -0.2705447972 -10.0173397064 23.6565 99353.5781 23.7800 -0.1017886698 0.0178529862 -0.0021316998 0.2274491638 -0.7565677166 -9.8641109467
25435671 -0.0463644750 0.0002664625 0.0330413468 0.8690952063 -0.2226607651 -9.9598789215 23.6535 99353.5781 23.7800 -0.1111148521 0.0194517616 0.0042633996 0.1508347094 -0.6991068721 -9.7084875107
25446275 -0.0471638590 0.0000000000 0.0335742719 0.9002198577 -0.2250549644 -10.0149459839 23.6565 99353.5781 23.7800 -0.1092496142 0.0178529862 -0.0042633996 0.1508347094 -0.6991068721 -9.7084875107
25456490 -0.0431669205 0.0005329250 0.0330413468 0.9097966552 -0.2011129409 -9.9814271927 23.6476 99353.5781 23.7800 -0.1049862206 0.0127901994 -0.0021316998 0.1436520964 -0.6536170840 -9.8066501617
25467234 -0.0309096482 0.0000000000 0.0325084217 0.8906430602 -0.1963245422 -9.9670619965 23.6447 99353.5781 23.7800 -0.0932618678 0.0194517616 0.0050627873 0.1221042871 -0.6871358752 -9.7420063019
25479349 -0.0250474736 0.0013323124 0.0309096482 0.8834604025 -0.2322375625 -9.9910039902 23.6388 99353.7344 23.7800 -0.0860673785 0.0213169977 0.0018652374 0.1221042871 -0.6871358752 -9.7420063019
25489899 -0.0343736596 0.0010658499 0.0298437979 0.8834604025 -0.2825157940 -10.0700120926 23.6565 99353.7344 23.7800 -0.0945941806 0.0199846849 -0.0015987749 0.1460463107 -0.7350199223 -9.7611598969
25500445 -0.0607534461 0.0005329250 0.0303767230 0.8786720037 -0.3160346150 -10.1274728775 23.6535 99353.7344 23.7800 -0.1153782606 0.0199846849 -0.0037304747 0.1460463107 -0.7350199223 -9.7611598969
25510435 -0.0951271057 0.0010658499 0.0293108728 0.8834604025 -0.3351882398 -10.0915603638 23.6565 99353.7344 23.7800 -0.1438897401 0.0146554364 -0.0093261870 0.2298433632 -0.7493851185 -9.7467947006
25520545 -0.1318989247 0.0021316998 0.0277120993 0.8690952063 -0.3208230138 -10.0340995789 23.6565 99353.7344 23.7800 -0.1819938719 0.0175865237 -0.0061286367 0.2298433632 -0.7493851185 -9.7467947006
25530820 -0.1684042960 0.0026646247 0.0255803987 0.8786720037 -0.2873041928 -10.0915603638 23.6506 99353.7344 23.7800 -0.2206309289 0.0202511493 -0.0074609495 0.0885854661 -0.7302315235 -9.6510267258
25541161 -0.1894548088 0.0026646247 0.0250474736 0.8762778044 -0.2130839527 -10.0532531738 23.6624 99353.4141 23.7800 -0.2611332238 0.0210505370 -0.0079938741 0.1508347094 -0.6009446383 -9.7779197693
25551518 -0.1921194345 0.0021316998 0.0207840726 0.8714894056 -0.1268926859 -9.9742441177 23.6565 99353.4141 23.7800 -0.2523399591 0.0213169977 -0.0095926486 0.1508347094 -0.6009446383 -9.7779197693
25561579 -0.1814609617 0.0026646247 0.0183859114 0.8667010069 -0.1053448766 -9.9933977127 23.6506 99353.4141 23.7800 -0.2384839207 0.0157212857 -0.0205176100 0.1244984865 -0.5530605912 -9.7539777756
25572189 -0.1771975458 0.0026646247 0.0181194488 0.8714894056 -0.0646434426 -10.0436763763 23.6476 99353.4141 23.7800 -0.2336875945 0.0149218990 -0.0175865237 0.1244984865 -0.5530605912 -9.7539777756
25584587 -0.1857243478 0.0023981621 0.0250474736 0.8571242094 -0.0215478148 -10.0412817001 23.6506 99353.4141 23.7800 -0.2504747212 0.0170535985 -0.0125237368 0.1292868853 -0.4668693244 -9.7491893768
25595143 -0.1819938719 0.0015987749 0.0285114869 0.8858546019 0.0000000000 -10.0029745102 23.6565 99353.4141 23.7800 -0.2462113351 0.0114578865 -0.0026646247 0.1340752989 -0.4501099288 -9.7803134918
25605784 -0.1830597222 0.0018652374 0.0293108728 0.8786720037 -0.0287304204 -10.0484647751 23.6506 99353.1328 23.7800 -0.2336875945 0.0226493105 -0.0045298622 0.1340752989 -0.4501099288 -9.7803134918
25615942 -0.2019785643 0.0010658499 0.0285114869 0.8882488012 -0.0718260482 -10.1059255600 23.6418 99353.1328 23.7800 -0.2515405715 0.0181194488 -0.0029310873 0.1484405100 -0.5746083856 -9.7036991119
25626607 -0.2339540571 0.0015987749 0.0301102605 0.8810662031 -0.0454898328 -10.1059255600 23.6535 99353.1328 23.7800 -0.2795191407 0.0141225113 -0.0023981621 0.1484405100 -0.5746083856 -9.7036991119
25636876 -0.2547381222 0.0018652374 0.0279785600 0.8954314590 0.0454898328 -10.0005807877 23.6594 99353.1328 23.7800 -0.3176232576 0.0253139343 -0.0045298622 0.1101332754 -0.4357447028 -9.7491893768
25647414 -0.2515405715 0.0021316998 0.0271791741 0.8667010069 0.1532289088 -9.9694557190 23.6565 99353.1328 23.7800 -0.3088300228 0.0165206734 -0.0098591121 0.1101332754 -0.4357447028 -9.7491893768
25659972 -0.2129035145 0.0018652374 0.0298437979 0.8714894056 0.2968810201 -9.8928413391 23.6624 99353.1328 23.7800 -0.2779203653 0.0207840726 -0.0042633996 0.2154781520 -0.2250549644 -9.7946786880
25670114 -0.1513506919 0.0021316998 0.0295773353 0.8571242094 0.3926490843 -9.8497457504 23.6447 99353.2969 23.7800 -0.2139693648 0.0167871360 0.0010658499 0.0957680643 -0.0287304204 -9.8688993454
25680656 -0.0684808567 0.0007993875 0.0301102605 0.8643068075 0.4022258818 -9.8281984329 23.6329 99353.2969 23.7800 -0.1377611011 0.0186523739 0.0005329250 0.0957680643 -0.0287304204 -9.8688993454
25691308 -0.0010658499 0.0010658499 0.0325084217 0.8571242094 0.3399766386 -9.8760824203 23.6535 99353.2969 23.7800 -0.0612863675 0.0146554364 0.0013323124 0.1723825186 -0.0598550439 -9.7372179031
25702156 0.0463644750 0.0000000000 0.0333078094 0.8307880163 0.2585737705 -9.9191780090 23.6476 99353.2969 23.7800 -0.0157212857 0.0194517616 0.0000000000 0.1723825186 -0.0598550439 -9.7372179031
25712903 0.0655497685 -0.0002664625 0.0335742719 0.8499416113 0.1939303428 -10.0005807877 23.6447 99353.2969 23.7800 0.0066615618 0.0229157731 -0.0026646247 0.1819593310 -0.2849099934 -9.7970733643
25724869 0.0572894327 -0.0005329250 0.0327748843 0.8667010069 0.1005564705 -10.0532531738 23.6565 99353.2969 23.7800 -0.0117243491 0.0165206734 0.0000000000 0.1532289088 -0.3687070608 -9.7276411057
25735289 0.0357059725 0.0002664625 0.0322419591 0.8906430602 0.0909796655 -10.0939540863 23.6594 99353.4531 23.7800 -0.0333078094 0.0191852972 0.0015987749 0.1532289088 -0.3687070608 -9.7276411057
25745764 0.0063950997 0.0002664625 0.0314425714 0.9074024558 0.0957680643 -10.0532531738 23.6476 99353.4531 23.7800 -0.0615528338 0.0159877483 -0.0002664625 0.0790086538 -0.4118026793 -9.7252473831
25756175 -0.0114578865 0.0002664625 0.0287779476 0.8954314590 0.1149216816 -10.0293111801 23.6624 99353.4531 23.7800 -0.0751424208 0.0159877483 -0.0015987749 0.0790086538 -0.4118026793 -9.7252473831
25766593 -0.0173200611 0.0000000000 0.0269127097 0.8786720037 0.1747767180 -10.0053691864 23.6476 99353.4531 23.7800 -0.0815375224 0.0162542108 -0.0122572733 0.1651999205 -0.3327940404 -9.7635545731
25776624 -0.0130566610 -0.0010658499 0.0255803987 0.8667010069 0.2418143749 -9.9886093140 23.6388 99353.4531 23.7800 -0.0783399716 0.0149218990 -0.0085267993 0.1651999205 -0.3327940404 -9.7635545731
25787311 0.0018652374 -0.0015987749 0.0293108728 0.8523358107 0.2968810201 -9.9383316040 23.6506 99353.4531 23.7800 -0.0639509931 0.0194517616 0.0015987749 0.1436520964 -0.1125274822 -9.7946786880
25797972 0.0311761107 -0.0002664625 0.0322419591 0.8595184088 0.2944868207 -9.9479084015 23.6506 99353.6172 23.7800 -0.0391699858 0.0178529862 -0.0050627873 0.1149216816 -0.1628057212 -9.8186216354
25810067 0.0575558953 -0.0005329250 0.0327748843 0.8714894056 0.2537853718 -9.9598789215 23.6594 99353.6172 23.7800 0.0005329250 0.0210505370 0.0018652374 0.1149216816 -0.1628057212 -9.8186216354
25820700 0.0676814690 0.0000000000 0.0327748843 0.8595184088 0.2130839527 -9.9886093140 23.6565 99353.6172 23.7800 0.0090597244 0.0234486982 -0.0005329250 0.1484405100 -0.2705447972 -9.7539777756
25831367 0.0650168434 0.0002664625 0.0325084217 0.8810662031 0.1651999205 -10.0293111801 23.6653 99353.6172 23.7800 0.0039969371 0.0154548241 0.0026646247 0.1484405100 -0.2705447972 -9.7539777756
25841578 0.0623522215 -0.0002664625 0.0333078094 0.9050082564 0.1508347094 -10.0293111801 23.6653 99353.6172 23.7800 0.0000000000 0.0159877483 0.0037304747 0.1675941199 -0.3280056417 -9.8138332367
25852219 0.0564900450 -0.0005329250 0.0335742719 0.9002198577 0.1508347094 -10.0173397064 23.6653 99353.6172 23.7800 -0.0055957120 0.0202511493 0.0058621746 0.1867477298 -0.3184288144 -9.8114385605
25862366 0.0482297093 0.0007993875 0.0317090340 0.8810662031 0.1149216816 -10.0245227814 23.6535 99353.0156 23.7800 -0.0127901994 0.0178529862 0.0026646247 0.1867477298 -0.3184288144 -9.8114385605
25872866 0.0290444102 0.0007993875 0.0319754966 0.8714894056 0.1005564705 -10.0604352951 23.6682 99353.0156 23.7800 -0.0298437979 0.0197182242 -0.0002664625 0.1436520964 -0.3854664862 -9.7611598969
25885473 0.0015987749 0.0005329250 0.0314425714 0.8714894056 0.0861912593 -10.0700120926 23.6624 99353.0156 23.7800 -0.0524931103 0.0162542108 -0.0026646247 0.1436520964 -0.3854664862 -9.7611598969
25895644 -0.0247810110 0.0007993875 0.0295773353 0.8906430602 0.1221042871 -10.0484647751 23.6624 99353.0156 23.7800 -0.0767411888 0.0167871360 0.0005329250 0.1340752989 -0.3782838583 -9.7755250931
25906185 -0.0410352200 0.0005329250 0.0301102605 0.8810662031 0.1221042871 -10.0388879776 23.6800 99353.0156 23.7800 -0.1097825393 0.0218499228 -0.0026646247 0.1340752989 -0.3782838583 -9.7755250931
25916347 -0.0522266440 0.0010658499 0.0287779476 0.8714894056 0.1364694983 -10.0149459839 23.6594 99353.0156 23.7800 -0.1201745793 0.0218499228 -0.0074609495 0.1101332754 -0.2849099934 -9.8210153580
25927170 -0.0570229739 0.0010658499 0.0271791741 0.8762778044 0.1699883193 -9.9981861115 23.6594 99353.1719 23.7800 -0.1257702857 0.0191852972 -0.0023981621 0.1675941199 -0.2609679997 -9.7970733643
25938015 -0.0596875958 0.0000000000 0.0277120993 0.8978256583 0.1819593310 -10.0077629089 23.6653 99353.1719 23.7800 -0.1217733547 0.0162542108 -0.0005329250 0.1675941199 -0.2609679997 -9.7970733643
25950185 -0.0615528338 0.0000000000 0.0250474736 0.8810662031 0.2011129409 -10.0293111801 23.6447 99353.1719 23.7800 -0.1276355386 0.0189188365 -0.0101255747 0.1053448766 -0.2849099934 -9.8066501617
25960329 -0.0620857589 0.0002664625 0.0271791741 0.8499416113 0.2466027737 -10.0149459839 23.6388 99353.1719 23.7800 -0.1289678365 0.0183859114 -0.0077274120 0.1053448766 -0.2849099934 -9.8066501617
25973354 -0.0527595729 0.0010658499 0.0258468594 0.8810662031 0.2705447972 -9.9790325165 23.6594 99353.1719 23.7800 -0.1065849885 0.0218499228 -0.0026646247 0.3112462163 -0.2130839527 -9.6893339157
25985689 -0.0373047478 0.0005329250 0.0285114869 0.8738836050 0.3160346150 -9.9862155914 23.6359 99353.1719 23.7800 -0.0988575816 0.0173200611 -0.0026646247 0.0574608408 -0.1221042871 -9.8210153580
25996092 -0.0191852972 0.0000000000 0.0290444102 0.8619126081 0.3064578176 -9.9598789215 23.6535 99353.0156 23.7800 -0.0820704401 0.0138560496 -0.0053292494 0.0574608408 -0.1221042871 -9.8210153580
26006239 -0.0013323124 -0.0005329250 0.0287779476 0.8619126081 0.3136404157 -9.9718503952 23.6594 99353.0156 23.7800 -0.0623522215 0.0167871360 -0.0029310873 0.1915361285 -0.2035071403 -9.7779197693
26016880 0.0133231236 0.0002664625 0.0269127097 0.8810662031 0.2896983922 -9.9694557190 23.6565 99353.0156 23.7800 -0.0508943349 0.0242480859 -0.0058621746 0.1316810995 -0.1364694983 -9.7467947006
26028021 0.0215834603 -0.0007993875 0.0266462471 0.8762778044 0.2849099934 -9.9814271927 23.6535 99353.0156 23.7800 -0.0402358361 0.0122572733 -0.0050627873 0.1316810995 -0.1364694983 -9.7467947006
26038343 0.0263797864 0.0000000000 0.0282450225 0.8619126081 0.2801215947 -9.9933977127 23.6535 99353.0156 23.7800 -0.0391699858 0.0231822375 0.0007993875 0.1053448766 -0.1747767180 -9.7851018906
26050936 0.0279785600 0.0000000000 0.0319754966 0.8690952063 0.2729389966 -10.0053691864 23.6535 99353.0156 23.7800 -0.0357059725 0.0175865237 0.0021316998 0.1053448766 -0.1747767180 -9.7851018906
26061256 0.0301102605 0.0002664625 0.0327748843 0.8858546019 0.2657563984 -10.0197343826 23.6535 99353.1719 23.7800 -0.0290444102 0.0202511493 -0.0021316998 0.1101332754 -0.1939303428 -9.7611598969
26071674 0.0303767230 0.0007993875 0.0314425714 0.8906430602 0.2418143749 -10.0508584976 23.6653 99353.1719 23.7800 -0.0351730473 0.0154548241 0.0021316998 0.1101332754 -0.1939303428 -9.7611598969
26082418 0.0269127097 0.0005329250 0.0317090340 0.8738836050 0.2609679997 -10.0077629089 23.6800 99353.1719 23.7800 -0.0359724350 0.0178529862 0.0026646247 0.1412578970 -0.2011129409 -9.7970733643
26092766 0.0223828480 -0.0005329250 0.0333078094 0.8858546019 0.2466027737 -10.0101575851 23.6653 99353.1719 23.7800 -0.0444992334 0.0191852972 0.0000000000 0.0766144544 -0.2082955539 -9.7611598969
26103443 0.0181194488 0.0002664625 0.0333078094 0.8906430602 0.2370259613 -10.0005807877 23.6565 99353.1719 23.7800 -0.0407687612 0.0175865237 -0.0034640124 0.0766144544 -0.2082955539 -9.7611598969
26115720 0.0114578865 -0.0005329250 0.0322419591 0.8786720037 0.2346317619 -9.9910039902 23.6653 99353.1719 23.7800 -0.0532924943 0.0197182242 -0.0015987749 0.1436520964 -0.2705447972 -9.7348241806
26126563 0.0090597244 -0.0002664625 0.0309096482 0.8762778044 0.2513911724 -9.9766387939 23.6624 99352.9219 23.7700 -0.0551577322 0.0173200611 0.0010658499 0.1436520964 -0.2705447972 -9.7348241806
26137363 0.0098591121 0.0005329250 0.0319754966 0.8810662031 0.2849099934 -10.0221281052 23.6594 99352.9219 23.7700 -0.0546248071 0.0215834603 0.0002664625 0.1244984865 -0.0885854661 -9.7324295044
26147687 0.0055957120 0.0015987749 0.0317090340 0.8571242094 0.2489969730 -10.0460700989 23.6506 99352.9219 23.7700 -0.0596875958 0.0159877483 0.0005329250 0.1292868853 -0.2418143749 -9.8018617630
26158372 -0.0047963243 0.0010658499 0.0335742719 0.8714894056 0.2442085743 -10.0556468964 23.6682 99352.9219 23.7700 -0.0700796321 0.0189188365 -0.0002664625 0.1292868853 -0.2418143749 -9.8018617630
26170665 -0.0213169977 0.0002664625 0.0309096482 0.9026140571 0.2298433632 -10.0388879776 23.6653 99352.9219 23.7700 -0.0810045972 0.0189188365 0.0000000000 0.1484405100 -0.2370259613 -9.7324295044
26181222 -0.0335742719 0.0005329250 0.0309096482 0.8906430602 0.2442085743 -10.0269165039 23.6741 99352.9219 23.7700 -0.0964594185 0.0183859114 -0.0015987749 0.1484405100 -0.2370259613 -9.7324295044
26191811 -0.0429004580 0.0007993875 0.0319754966 0.8786720037 0.2777273953 -10.0317049026 23.6682 99353.2500 23.7700 -0.1036539078 0.0173200611 0.0039969371 0.1795651317 -0.1867477298 -9.6989107132
26202244 -0.0442327708 0.0010658499 0.0330413468 0.8834604025 0.3160346150 -10.0077629089 23.6771 99353.2500 23.7700 -0.1087166965 0.0173200611 -0.0013323124 0.1149216816 -0.1628057212 -9.7396125793
26212551 -0.0378376730 -0.0002664625 0.0317090340 0.8762778044 0.3471592367 -9.9766387939 23.6594 99353.2500 23.7700 -0.1055191457 0.0189188365 -0.0047963243 0.1149216816 -0.1628057212 -9.7396125793
26222957 -0.0162542108 0.0000000000 0.0330413468 0.8786720037 0.3854664862 -9.9167833328 23.6594 99353.2500 23.7700 -0.0900643170 0.0170535985 0.0018652374 0.1221042871 -0.0407014303 -9.8162269592
26233057 0.0071944869 0.0002664625 0.0319754966 0.8667010069 0.3854664862 -9.9431200027 23.6624 99353.2500 23.7700 -0.0452986211 0.0194517616 0.0000000000 0.1221042871 -0.0407014303 -9.8162269592
26243803 0.0279785600 0.0000000000 0.0322419591 0.8595184088 0.3375824392 -9.9550905228 23.6447 99353.2500 23.7700 -0.0309096482 0.0194517616 0.0034640124 0.1364694983 -0.0766144544 -9.7587661743
26256153 0.0367718227 -0.0002664625 0.0325084217 0.8643068075 0.3112462163 -10.0125513077 23.6594 99353.2500 23.7700 -0.0239816234 0.0191852972 0.0037304747 0.1484405100 -0.1388636976 -9.7300357819
26266902 0.0367718227 0.0010658499 0.0327748843 0.8738836050 0.3112462163 -10.0029745102 23.6741 99353.2500 23.7700 -0.0277120993 0.0199846849 0.0005329250 0.1484405100 -0.1388636976 -9.7300357819
26277587 0.0375712104 0.0000000000 0.0338407345 0.8738836050 0.3160346150 -10.0053691864 23.6624 99353.2500 23.7700 -0.0247810110 0.0221163854 -0.0005329250 0.1747767180 -0.1412578970 -9.8186216354
26287974 0.0410352200 0.0002664625 0.0335742719 0.8738836050 0.3112462163 -10.0029745102 23.6653 99353.2500 23.7700 -0.0261133220 0.0226493105 0.0034640124 0.1747767180 -0.1412578970 -9.8186216354
26298752 0.0460980088 -0.0005329250 0.0330413468 0.8643068075 0.3327940404 -10.0077629089 23.6771 99353.2500 23.7700 -0.0210505370 0.0181194488 0.0026646247 0.1221042871 -0.1053448766 -9.7827081680
26311009 0.0535589568 -0.0002664625 0.0338407345 0.8571242094 0.3423708379 -9.9718503952 23.6771 99353.2500 23.7700 -0.0111914240 0.0186523739 -0.0015987749 0.0957680643 -0.1364694983 -9.8162269592
26321765 0.0676814690 -0.0007993875 0.0349065848 0.8667010069 0.3687070608 -9.9550905228 23.6771 99352.9688 23.7700 0.0021316998 0.0226493105 -0.0010658499 0.0957680643 -0.1364694983 -9.8162269592
26332484 0.0823369101 -0.0013323124 0.0338407345 0.8810662031 0.3327940404 -9.9694557190 23.6653 99352.9688 23.7700 0.0191852972 0.0162542108 0.0039969371 0.1460463107 -0.0837970600 -9.7467947006
26342833 0.0940612480 -0.0002664625 0.0338407345 0.8834604025 0.3184288144 -9.9814271927 23.6712 99352.9688 23.7700 0.0357059725 0.0194517616 0.0005329250 0.1460463107 -0.0837970600 -9.7467947006
26353655 0.0983246565 0.0000000000 0.0335742719 0.8906430602 0.2873041928 -10.0173397064 23.6712 99352.9688 23.7700 0.0365053602 0.0167871360 0.0000000000 0.1651999205 -0.2394201756 -9.7467947006
26366725 0.0919295549 0.0000000000 0.0330413468 0.8762778044 0.2418143749 -10.0508584976 23.6712 99352.9688 23.7700 0.0303767230 0.0218499228 -0.0021316998 0.1771709323 -0.1699883193 -9.7300357819
26377573 0.0823369101 0.0000000000 0.0330413468 0.8571242094 0.2394201756 -10.0245227814 23.6594 99352.9688 23.7700 0.0178529862 0.0162542108 -0.0010658499 0.1771709323 -0.1699883193 -9.7300357819
26388463 0.0711454824 0.0002664625 0.0322419591 0.8786720037 0.2394201756 -10.0269165039 23.6712 99353.1328 23.7700 0.0029310873 0.0181194488 -0.0007993875 0.1628057212 -0.2633621991 -9.7300357819
26398306 0.0610199086 0.0000000000 0.0314425714 0.8882488012 0.2394201756 -10.0364933014 23.6741 99353.1328 23.7700 -0.0077274120 0.0218499228 0.0045298622 0.1628057212 -0.2633621991 -9.7300357819
26408854 0.0511607975 -0.0002664625 0.0330413468 0.8786720037 0.2394201756 -10.0101575851 23.6653 99353.1328 23.7700 -0.0146554364 0.0207840726 0.0023981621 0.0933738649 -0.2130839527 -9.7108821869
26421158 0.0439663082 -0.0005329250 0.0330413468 0.8571242094 0.2585737705 -10.0245227814 23.6682 99353.1328 23.7700 -0.0229157731 0.0138560496 0.0005329250 0.1556231081 -0.1723825186 -9.8281984329
26431548 0.0405022986 -0.0002664625 0.0330413468 0.8643068075 0.2442085743 -10.0053691864 23.6712 99353.1328 23.7700 -0.0210505370 0.0178529862 -0.0018652374 0.1556231081 -0.1723825186 -9.8281984329
26445514 0.0394364484 0.0000000000 0.0333078094 0.8547300100 0.2466027737 -10.0005807877 23.6653 99353.2969 23.7700 -0.0183859114 0.0213169977 0.0045298622 0.1077390760 -0.2226607651 -9.7922849655
26457850 0.0389035232 0.0000000000 0.0338407345 0.8619126081 0.2537853718 -10.0101575851 23.6771 99353.2969 23.7700 -0.0197182242 0.0202511493 -0.0026646247 0.1412578970 -0.2753331959 -9.8641109467
26468666 0.0373047478 0.0005329250 0.0325084217 0.8858546019 0.2633621991 -10.0364933014 23.6829 99353.2969 23.7700 -0.0295773353 0.0183859114 -0.0023981621 0.1412578970 -0.2753331959 -9.8641109467
